# Temp          Free            Mag_h
#0.7800000000	-0.5811103141	0.6517027020	
#0.7900000000	-0.5700517821	0.6408238411	
#0.8000000000	-0.5591703966	0.6291044354	
#0.8100000000	-0.5484694027	0.6165711284	
0.8200000000	-0.5379547883	0.6028535366	
0.8300000000	-0.5276309952	0.5882198811	
0.8400000000	-0.5175046608	0.5720306039	
0.8500000000	-0.5075820811	0.5539133549	
0.8600000000	-0.4978707603	0.5332182646	
0.8700000000	-0.4883784909	0.5085899234	
0.8800000000	-0.4791175479	0.4770648181
#0.8810000000 	-0.4782045935 	0.4734052420	
#0.8820000000	-0.4772932864	0.4695217013	
#0.8830000000	-0.4763883906	0.4655941725	
#0.8840000000	-0.4754789713	0.4613673687	
#0.8850000000	-0.4745776950	0.4570648968	
#0.8860000000	-0.4736776128	0.4524433613	
#0.8870000000	-0.4727783979	0.4477165937	
#0.8880000000	-0.4718842185	0.4428193271	
#0.8890000000	-0.4709910970	0.4375679195	
0.8900000000	-0.4701007987	0.4320772290	
#0.8910000000	-0.4692133302	0.4262130857	
#0.8920000000	-0.4683268005	0.4199065566	
#0.8930000000	-0.4674448374	0.4133998156	
#0.8940000000	-0.4665660649	0.4064049125	
#0.8950000000	-0.4656890897	0.3989644945	
#0.8960000000	-0.4648148190	0.3910099864	
#0.8970000000	-0.4639436845	0.3825137317	
#0.8980000000	-0.4630748546	0.3732174933	
#0.8990000000	-0.4622108437	0.3633244634	
0.9000000000	-0.4613458091	0.3528416753	
0.9100000000	-0.4528783580	0.2121197134	
0.9200000000	-0.4447191968	0.0980119705	
0.9300000000	-0.4368632756	0.0489610694	
0.9400000000	-0.4293037053	0.0280154198	
0.9500000000	-0.4220301202	0.0177315231	
0.9600000000	-0.4150246649	0.0120936772	
0.9700000000	-0.4082789845	0.0087430803	
0.9800000000	-0.4017791993	0.0065916399	
0.9900000000	-0.3955104250	0.0051502679	
1.0000000000	-0.3894615353	0.0041343383	
1.0100000000	-0.3836200987	0.0033928668	
1.0200000000	-0.3779752299	0.0028340702