#Temp	log(Z)
0.860 	0.641864
0.870 	0.623677
0.880 	0.606104
0.890 	0.589128
0.900 	0.572739
0.910 	0.556928
0.920 	0.541690
0.930 	0.527019
0.940 	0.512907
0.950 	0.499339
0.960 	0.486299
0.970 	0.473768
0.980 	0.461723
0.990 	0.450145
1.000 	0.439011
1.010 	0.428302